Magnetic Field (T),Moment (muB/f.u.),M. Std. Err. (muB/f.u.),Moment (muB/f.u.)_lin-part,Moment (muB/f.u.)_y-lin-subtract
6.99997734375,-6.543317051536597,0.013405208866409052,-6.555127411737737,0.011810360201139637
6.99997421875,-6.544424729705268,0.013146700183205701,-6.555124485332099,0.010699755626831101
5.5875296875,-5.220894217330369,0.01684701756155204,-5.232441080846125,0.011546863515755795
4.460053515625,-4.1656205009485,0.015189757334793903,-4.176616240650342,0.010995739701842304
3.560080859375,-3.3222511829057613,0.009091118486563904,-3.3338370230767076,0.011585840170946337
2.8417267578125003,-2.649927338549211,0.006827546600981401,-2.6611344654475797,0.011207126898368605
2.2682968750000003,-2.1121199982880268,0.00489310310039196,-2.1241461640654395,0.012026165777412934
1.8105941406250001,-1.6827939643658694,0.003906139384197572,-1.695530528158028,0.012736563792158536
1.4452402343750002,-1.3407515233378902,0.0029921860989844348,-1.353394934250259,0.01264341091236884
1.1536341796875,-1.067566591532831,0.002443557067408505,-1.0803205014854957,0.012753909952664687
0.9208375976562501,-0.8497369405747568,0.0019623888890605043,-0.862318187864522,0.012581247289765111
0.7350404296875,-0.6753622925335103,0.001653977454489666,-0.6883284663316901,0.012966173798179825
0.58673544921875,-0.5367006711131593,0.0013333061545295615,-0.5494482964357212,0.012747625322561875
0.46833383789062505,-0.42566792936758757,0.0011078169975506998,-0.4385711307111934,0.012903201343605807
0.373850268554687,-0.3374051146774789,0.0009158516714594513,-0.35009201072292295,0.012686896045444046
0.298420727539063,-0.26682785242459284,0.0007750202169468226,-0.27945603182110734,0.012628179396514484
0.238204150390625,-0.2105324270824969,0.0006818789411759159,-0.2230662299513652,0.01253380286886833
0.19015948486328102,-0.165733216433489,0.000602319973434999,-0.1780748123338125,0.0123415959003235
0.151777954101562,-0.13039760980649273,0.0007600472939847572,-0.14213243537380144,0.011734825567308697
0.12115198974609401,-0.10185340893306145,0.0004752105049232363,-0.113452757055031,0.011599348121969548
0.09670150756835941,-0.07964147039005205,0.00042494452570469756,-0.09055610781136207,0.010914637421310023
0.077197314453125,-0.061607292935807155,0.0003838301203833966,-0.072291409990925,0.010684117055117844
0.0616457275390625,-0.04743039348653796,0.0003654906978744604,-0.057728129472965406,0.010297735986427446
0.0492101013183594,-0.03655016901635354,0.0003418275043521643,-0.046082789735653426,0.009532620719299886
0.039284414672851604,-0.027564343923465972,0.00033458612519675265,-0.036787882421648974,0.009223538498183002
0.031359567260742204,-0.02039374484334517,0.0003124554866338794,-0.02936666061564701,0.008972915772301839
0.025034414672851602,-0.014878391659141748,0.0003192970066370459,-0.023443472714285374,0.008565081055143624
0.019980178833007803,-0.010391489990349674,0.000295641931860623,-0.018710434552564912,0.008318944562215236
0.015958871459960902,-0.006921494102411809,0.00029303258589879317,-0.01494468205114878,0.00802318794873697
0.0127570381164551,-0.003939255936020648,0.0002890522437687856,-0.011946325844100412,0.008007069908079763
0.0101955703735352,-0.0019047066671700316,0.0002891391650965946,-0.00954763987822539,0.007642933211055359
0.00814811477661133,-6.258584031545643e-05,0.0002866288909728473,-0.007630300485735088,0.0075677146454196315
0.006483406829833981,0.0016452912825222995,0.00028157817039756487,-0.0060713850552157195,0.007716676337738019
0.00520144653320313,0.002658846302881182,0.00027817114557600705,-0.004870893586667268,0.00752973988954845
0.00414888954162598,0.0036109667956159353,0.00027516589373889286,-0.0038852267981791602,0.0074961935937950955
0.00333309669494629,0.004260274884112361,0.0002764474383236265,-0.0031212777467805467,0.007381552630892908
0.0026632877349853502,0.004837812577889317,0.0002728285559940742,-0.0024940352774905903,0.007331847855379907
0.0021259685516357403,0.0053331541243423555,0.00026777079037083884,-0.001990862833543698,0.0073240169578860535
0.0016990573883056603,0.005764936761568166,0.000272151100941405,-0.0015910819583069397,0.007356018719875106
0.00136169939041138,0.005915921248814917,0.0002694600700400353,-0.0012751631272924007,0.0071910843761073175
0.00109058628082275,0.006228025189790089,0.00026784517389190343,-0.0010212793089493801,0.00724930449873947
0.0008771306991577151,0.0064664830982820816,0.00027590954064729724,-0.0008213888713310057,0.0072878719696130865
0.000693117237091064,0.0065686532219922395,0.00026809565879080195,-0.0006490695008406337,0.007217722722832873
0.0005753486633300781,0.006739031823236618,0.0002633146649002426,-0.000538785143021794,0.007277816966258412
0.00046616735458374,0.006809513326255849,0.00027455205684602074,-0.00043654232784303635,0.007246055654098886
0.00037538740634918203,0.006954192194111887,0.00028026435926795036,-0.0003515314631093381,0.0073057236572212254
0.000323863649368286,0.007043115408365354,0.00026689407018416235,-0.0003032820509819197,0.007346397459347273
0.000263752579689026,0.007054086600242486,0.0002716651567496752,-0.0002469910515610126,0.007301077651803498
0.00021468234062194802,0.007132992388798787,0.00027360337251451693,-0.00020103923580316218,0.0073340316246019496
0.000164385330677032,0.007225538908355847,0.0002584611526925556,-0.00015393861069717618,0.007379477519053023
-7.48321294784546e-05,0.007307519651809616,0.00026335734179837696,7.007653298491082e-05,0.007237443118824705
-0.00010427428483963,0.007324624779142315,0.00027112238310016406,9.76476336029723e-05,0.0072269771455393435
-0.00015211777687072802,0.007400409060981853,0.00026218787394522596,0.00014245066233939036,0.007257958398642463
-0.00018155990839004502,0.00743915784302242,0.00026792449013856017,0.00017002174063074818,0.007269136102391672
-0.000230630159378052,0.007518976641251008,0.0002687003013502682,0.0002159735675519502,0.007303003073699058
-0.00031650309562683104,0.007600331702881988,0.0002709350292574692,0.0002963892618732149,0.007303942441008773
-0.000409736585617065,0.007647786950641401,0.00026145293636263426,0.0003836977453031844,0.007264089205338216
-0.000518917894363403,0.007741136994787159,0.00027768894015495156,0.0004859405604819419,0.007255196434305217
-0.0006293259620666501,0.007809950888862882,0.0002586810135338922,0.0005893321738454836,0.007220618715017398
-0.000825606918334961,0.007866785739159343,0.00026861213318232454,0.000773139436876884,0.007093646302282458
-0.0010292484283447299,0.008019490888047908,0.0002673486751712091,0.0009638394890169921,0.007055651399030916
-0.00130281505584717,0.00826578464137153,0.0002649912207941289,0.0012200209037295732,0.007045763737641957
-0.00163894634246826,0.008448205823053936,0.00026798314108650556,0.0015347909812127376,0.006913414841841198
-0.00205358982086182,0.008800185671812732,0.0002683534795501216,0.0019230837852948451,0.006877101886517888
-0.0025933626174926803,0.009155657331168821,0.0002650777177797845,0.0024285539149181182,0.006727103416250701
-0.0032472236633300806,0.009694998734339688,0.00025766964753312416,0.0030408619631524703,0.006654136771187218
-0.00408387145996094,0.010255224658914297,0.0002760105699410114,0.0038243406283458184,0.006430884030568479
-0.00512048034667969,0.010960158647766748,0.00026448346231265976,0.0047950728171647,0.006165085830602047
-0.006428202819824221,0.011942689687015631,0.00026131216341697893,0.006019689270860658,0.005923000416154973
-0.00806592178344727,0.013221098173635008,0.0002501676655652576,0.007553330873394334,0.005667767300240674
-0.0101060173034668,0.014577095470998792,0.0002567145710311385,0.009463777923309954,0.005113317547688838
-0.0126760726928711,0.016597142801424585,0.00025556068707827275,0.011870505789052332,0.004726637012372252
-0.0158950805664062,0.019063037874830668,0.0002513332669287671,0.014884945081380864,0.004178092793449802
-0.019913934326171903,0.022312187449873892,0.00024509241222048705,0.018648399897120665,0.0036637875527532277
-0.0249632614135742,0.02633613694773326,0.00023642397796738555,0.023376841258579275,0.0029592956891539867
-0.031308047485351605,0.031612509860833825,0.0002367874781633108,0.029318414932079043,0.002294094928754779
-0.0392157165527344,0.038550431976635324,0.00021137298133110045,0.036723550080528286,0.001826881896107035
-0.0491414031982422,0.0472518754483755,0.00019503875936757116,0.046018457394532745,0.001233418053842751
-0.06156353149414061,0.058344037758381914,0.000190908105735913,0.057651157002806624,0.0006928807555752863
-0.0771347534179688,0.07257083731054337,0.00015602621005820073,0.07223282472181335,0.00033801258873001597
-0.09666224975585941,0.09049927779832491,0.00013761908005043596,0.09051934484053997,-2.00670422150681e-05
-0.121102917480469,0.11275308315773115,0.00011210663921269559,0.11340680334150337,-0.0006537201837722243
-0.15172275390625,0.1409049321843253,0.0001051415580174629,0.14208074316171934,-0.0011758109773940604
-0.190078515625,0.1764464231846224,0.00013754554102212075,0.17799898870649214,-0.0015525655218697459
-0.238126879882813,0.2207961005621435,0.00022387086987629638,0.2229938699994677,-0.0021977694373242086
-0.298347119140625,0.2764569722934313,0.0003691713980193637,0.2793871012508154,-0.0029301289573841305
-0.37376809082031304,0.3467233168267784,0.000530849668519146,0.3500150553996732,-0.0032917385728947974
-0.46826142578125,0.43467706447448734,0.0007219960018617886,0.43850332040556006,-0.003826255931072714
-0.58665078125,0.5452498989523632,0.0009735459873046875,0.5493690091329781,-0.004119110180614935
-0.7349619140625,0.6839759090764606,0.0012860310379952165,0.6882549403900459,-0.004279031313585255
-0.9207774414062501,0.8575794682335258,0.0017124236934907993,0.8622618545559985,-0.004682386322472659
-1.1535470703125001,1.0756136754275119,0.002179372867898397,1.0802389279283484,-0.004625252500836609
-1.4451826171875,1.348946609317349,0.0028478381961824038,1.353340978646316,-0.004394369328966962
-1.8105265625,1.6901344212399996,0.003616728969219645,1.6954672446361152,-0.0053328233961157465
-2.268218359375,2.119033672127714,0.00476308866096877,2.124072638123795,-0.005038965996081512
-2.8416677734375,2.6572075278070573,0.006262132093793449,2.6610792295411696,-0.0038717017341123854
-3.560008203125,3.3286950850541484,0.009374883107864478,3.3337689841456344,-0.005073899091485894
-4.459966796875,4.171514541986316,0.014991799657380804,4.1765350328939,-0.005020490907583973
-5.58745234375,5.229160516216446,0.017884450107137444,5.232368652306595,-0.003208136090148887
-6.9999703125,6.549081665272657,0.013729482368018854,6.555120827325052,-0.006039162052395072
-5.587520312500001,5.228072353382411,0.01754526290606474,5.232432301629213,-0.00435994824680176
-4.46004765625,4.16946342609908,0.015041555671535901,4.176610753639773,-0.007147327540692851
-3.5600796875,3.3259605376317936,0.009570977893780856,3.3338359256745935,-0.007875388042800215
-2.8417070312500003,2.6533794778980497,0.00676782292460036,2.6611159925119927,-0.007736514613942602
-2.268289453125,2.1163761858389263,0.004873376144419577,2.12413921385205,-0.007763028013123423
-1.8105927734375,1.6868302792209975,0.003865483762566329,1.6955292478555617,-0.00869896863456407
-1.4452537109375,1.3439601656665752,0.0030671798392183226,1.3534075543745712,-0.009447388707995838
-1.1536341796875,1.0708503855139118,0.002489155090607974,1.0803205014854957,-0.009470115971583953
-0.92083876953125,0.8524196904044634,0.0019421116595357546,0.8623192852666359,-0.009899594862172529
-0.7350354980468751,0.6783389893570916,0.0016393596650203638,0.6883238480977935,-0.009984858740701777
-0.586730517578125,0.539592117510517,0.0013237186199713123,0.5494436782018245,-0.009851560691307373
-0.4683251953125,0.42849372986684414,0.001075134116229827,0.4385630373706019,-0.01006930750375777
-0.373847827148438,0.33999391369981635,0.0009340583352352885,0.3500897244685196,-0.01009581076870325
-0.298417016601562,0.26947146970526115,0.0007935451095433555,0.27945255671441177,-0.009981087009150607
-0.23819680175781302,0.2132385309627772,0.0006819670721046812,0.22305934832560856,-0.009820817362831379
-0.19015703125,0.16833825057173674,0.0005803928946424198,0.1780725146481363,-0.009734264076399574
-0.151791455078125,0.13277569119402985,0.0005345475772074084,0.14214507836065798,-0.009369387166628149
-0.12117161865234401,0.10422410065688145,0.0004700210063686117,0.11347113854044204,-0.009247037883560594
-0.09673217773437501,0.08190581052489283,0.00043312138798935686,0.09058482888231681,-0.008679018357423988
-0.07720344848632811,0.06413889717067689,0.00041930124932467664,0.07229715420511594,-0.008158257034439054
-0.0616469543457031,0.05028830414665411,0.00036718619827116075,0.05772927831580357,-0.00744097416914946
-0.049206420898437506,0.038940988541176724,0.00035900882407571095,0.046079343207138836,-0.0071383546659621105
-0.039284414672851604,0.029967137627923066,0.0003409353791104248,0.036787882421648974,-0.006820744793725908
-0.031353436279296897,0.022929188603942545,0.0003240997583414721,0.029360919259274067,-0.006431730655331522
-0.0250405471801758,0.017383382718060062,0.0003255048032972787,0.023449215499567303,-0.00606583278150724
-0.0199998062133789,0.013011415850774291,0.0003143630619274128,0.01872881460906696,-0.005717398758292668
-0.0159527374267578,0.009344602610055376,0.00029832749192044186,0.01493893783695785,-0.005594335226902471
-0.0127374092102051,0.00652930585980567,0.0003015157269126782,0.011927944358689362,-0.005398638498883691
-0.0101906639099121,0.004374643810725848,0.00029535257959990987,0.00954304522132708,-0.005168401410601232
-0.00813584747314453,0.0025769541416614896,0.0002933340581904883,0.007618812771807681,-0.005041858630146192
-0.006496900939941411,0.0010253799932087677,0.0002846586175066505,0.006084021611981322,-0.005058641618772554
-0.00520758018493652,-4.365094739658822e-05,0.00028403824011812793,0.0048766374436309615,-0.00492028839102755
-0.0041672908782959,-0.0008608986398380152,0.0002838598975467794,0.003902458726297514,-0.004763357366135529
-0.00332205581665039,-0.0016862213681580356,0.0002769409097227957,0.0031109385184640817,-0.004797159886622117
-0.0026485668182373,-0.002410146170678579,0.0002746141969386866,0.002480249877886803,-0.004890396048565383
-0.0021382360458374,-0.0027984989692736257,0.00027447999755949654,0.002002350726084726,-0.004800849695358352
-0.0017100980758667,-0.0032045239918647114,0.0002847446044748349,0.0016014210080097823,-0.0048059449998744935
-0.0013702866554260301,-0.003552396626868437,0.0002789249083398371,0.001283204669932485,-0.0048356012968009225
-0.0011004003524780301,-0.003815938998227929,0.0002761533176385287,0.0010304696944276597,-0.004846408692655588
-0.000875903987884521,-0.0040781812899775725,0.0002867386976304985,0.0008202401177996271,-0.004898421407777199
-0.000701704597473145,-0.004097480319651137,0.00028591880777690724,0.0006571111327875298,-0.004754591452438667
-0.0005863894462585451,-0.004207003365496117,0.00027503038331153936,0.0005491242820314451,-0.004756127647527562
-0.000457580089569092,-0.004392950561097418,0.00026041138867412424,0.00042850078520295404,-0.004821451346300373
-0.000365573358535767,-0.004410984377845167,0.00026767849911508106,0.00034234109995776854,-0.004753325477802936
-0.000299328517913818,-0.004556946942145768,0.0002827617318314229,0.0002803061319396429,-0.004837253074085411
-0.000250258255004883,-0.0045113017515351975,0.0002779698070647237,0.00023435429385509018,-0.004745656045390288
-0.000220816111564636,-0.00454268632155694,0.0002667985357434216,0.00020678320440037978,-0.0047494695259573195
-0.00017174586057663,-0.004544324246069327,0.0002720891887782674,0.0001608313774791787,-0.004705155623548505
-0.000143530476093292,-0.004617348972555394,0.00026916126078180595,0.00013440908620925221,-0.004751758058764646
0.00011286157369613601,-0.004721462955961852,0.00027394935542893894,-0.00010568919856975784,-0.0046157737573920945
0.00014107697010040302,-0.004819352251309664,0.0002787226334101247,-0.0001321115010030359,-0.004687240750306628
0.000175426149368286,-0.004817208036780256,0.0002748568161289454,-0.00016427778319688224,-0.0046529302535833735
0.00022940340042114298,-0.004838221531850224,0.0002805450135219182,-0.0002148247693671662,-0.004623396762483058
0.000320183372497559,-0.004924996287214553,0.0002691031695040907,-0.00029983565642756777,-0.004625160630786986
0.00038642821311950703,-0.005026656297678616,0.00027177675440926265,-0.0003618706244456925,-0.004664785673232924
0.0005164643764495849,-0.005095317971438577,0.00027278785365132343,-0.00048364296411237387,-0.004611675007326204
0.000640366744995117,-0.005229895948108765,0.0002746528068550455,-0.0005996713128551346,-0.0046302246352536314
0.000817019653320312,-0.005388888967643673,0.00026626884049120073,-0.0007650978942368009,-0.004623791073406872
0.00104274272918701,-0.00553453508459682,0.00026824672436228064,-0.0009764762243962067,-0.004558058860200614
0.00131508264541626,-0.0057270391175752765,0.00027096604085110574,-0.001231508885577413,-0.004495530231997864
0.00165121383666992,-0.005989390343848317,0.000269745597845861,-0.0015462788737537663,-0.0044431114700945505
0.00205972366333008,-0.006310357770423769,0.00027347142242020614,-0.0019288278208721703,-0.004381529949551599
0.00260563011169434,-0.006695662993686931,0.0002718034655933338,-0.0024400418074591464,-0.004255621186227783
0.0032545841217041004,-0.007137361218232645,0.00026971653233219474,-0.0030477546629543596,-0.004089606555278285
0.00408509826660156,-0.007725984985368245,0.0002614191367632486,-0.0038254894711840038,-0.0039004955141842415
0.00511679992675781,-0.008430518834673262,0.0002579082144504123,-0.004791626288650124,-0.0036388925460231385
0.006423295593261721,-0.00945508780880305,0.0002603730024425664,-0.006015093899507896,-0.0034399939092951545
0.00807573623657227,-0.010641450348152299,0.0002603218125143756,-0.007562521616099857,-0.003078928732052442
0.0101096984863281,-0.012044247569142899,0.00026297966896979144,-0.009467225166279,-0.002577022402863899
0.0126944732666016,-0.014098198115821504,0.00025361504877806606,-0.011887737002716213,-0.00221046111310529
0.015909800720214803,-0.01664123764076948,0.00025420075853615977,-0.014898729766530157,-0.0017425078742393213
0.0199163864135742,-0.01977648811352447,0.00024600089509145404,-0.018650696153888,-0.0011257919596364685
0.0249767562866211,-0.02390370407956275,0.00023561058712626167,-0.023389478529799394,-0.0005142255497633551
0.031303137207031304,-0.028961214076462148,0.00023883165573817345,-0.029313816702908287,0.00035260262644614055
0.0392255310058594,-0.03599430276663466,0.00022317929762995372,-0.036732740823233814,0.0007384380565991603
0.049140176391601606,-0.04479268362889582,0.00020504928047618065,-0.04601730855169459,0.001224624922798777
0.061557403564453106,-0.05575825981098797,0.00018786111821843997,-0.05764541850425168,0.0018871586932637109
0.0771592895507812,-0.07006242017299616,0.00016312208851523437,-0.07225580157857707,0.0021933814055808977
0.09665979614257811,-0.08787255590077878,0.0001879864459275352,-0.09051704715486356,0.0026444912540847724
0.12109432373046901,-0.11018753359789156,9.762910454881813e-05,-0.11339875572600004,0.0032112221281084844
0.151719079589844,-0.138370533129571,0.0006128367961280432,-0.14207730234884103,0.0037067692192700296
0.190065026855469,-0.173836828899828,0.0001210052707454037,-0.1779863571509083,0.004149528251080314
0.23812934570312502,-0.21789469712715165,0.00039304574934676234,-0.22299617911641567,0.005101481989264028
0.298331176757812,-0.27389917083053694,0.00036165898645577237,-0.2793721720095545,0.00547300117901755
0.373777905273438,-0.34405862531879494,0.0005212588656134788,-0.35002424614237876,0.005965620823583816
0.46826142578125,-0.4321031970053135,0.0006957754562739639,-0.43850332040556006,0.00640012340024655
0.5866470703125001,-0.542576589516963,0.0009695835513540666,-0.5493655340262835,0.006788944509320537
0.734968017578125,-0.6812927370429245,0.0013062552365093701,-0.6882606560260568,0.006967918983132369
