Magnetic Field (T),Moment (muB/f.u.),M. Std. Err. (muB/f.u.),Moment (muB/f.u.)_lin-part,Moment (muB/f.u.)_y-lin-subtract
6.99997734375,-6.464128543965335,0.0132429763969366,-6.4757959728686565,0.01166742890332217
6.99997421875,-6.465222816795344,0.012987596236568968,-6.475793081878955,0.010570265083610824
5.5875296875,-5.157709930522696,0.016643131647539534,-5.169117051629252,0.011407121106555703
4.460053515625,-4.115207343832584,0.015005927909406438,-4.126070010933821,0.01086266710123731
3.560080859375,-3.2820446468508733,0.008981095985830053,-3.2934902729094864,0.011445626058613058
2.8417267578125003,-2.6178573976523807,0.006744918291601528,-2.6289288937007913,0.01107149604841076
2.2682968750000003,-2.086558707407804,0.0048338858060349085,-2.0984393301659474,0.011880622758143482
1.8105941406250001,-1.6624284614353997,0.0038588665184990808,-1.6750108848320457,0.012582423396646085
1.4452402343750002,-1.3245254851800583,0.0029559740753750314,-1.337015883051354,0.012490397871295796
1.1536341796875,-1.054646691052604,0.002413984660048563,-1.0672462506831164,0.012599559630512316
0.9208375976562501,-0.8394532572957257,0.001938639673460041,-0.8518822438607828,0.012428986565057063
0.7350404296875,-0.6671889254790931,0.0016339606946191056,-0.6799981800963896,0.01280925461729643
0.58673544921875,-0.5302054142238473,0.0013171702216867565,-0.5427987652820842,0.012593351058236833
0.46833383789062505,-0.42051641251732996,0.001094409978754703,-0.4332634567850606,0.012747044267730703
0.373850268554687,-0.33332177173875555,0.000904767854727311,-0.3458551284775089,0.012533356738753328
0.298420727539063,-0.2635986493697009,0.0007656407701258616,-0.27607400005993754,0.012475350690236631
0.238204150390625,-0.20798452231726722,0.0006736267083602504,-0.2203666386431237,0.012382116325856478
0.19015948486328102,-0.16372748051071706,0.0005950305788663101,-0.175919715994497,0.012192235483779918
0.151777954101562,-0.12881951233236666,0.000750849052417035,-0.1404123207368258,0.011592808404459153
0.12115198974609401,-0.10062075898183212,0.0004694594140971819,-0.11207972951559315,0.011458970533761041
0.09670150756835941,-0.07867763367981834,0.0004198017636275901,-0.08946018001624474,0.010782546336426396
0.077197314453125,-0.06086170938167592,0.00037918493291125337,-0.0714165251546386,0.010554815772962677
0.0616457275390625,-0.046856381552814734,0.0003610674576939986,-0.05702949231663638,0.010173110763821646
0.0492101013183594,-0.03610783169522331,0.0003376906407853744,-0.045525086767091064,0.00941725507186775
0.039284414672851604,-0.02723075482174765,0.0003305368982221618,-0.03634266824621889,0.00911191342447124
0.031359567260742204,-0.020146935739458877,0.00030867408899196337,-0.029011259523480954,0.008864323784022077
0.025034414672851602,-0.014698330442289742,0.0003154328115768934,-0.02315975520496861,0.008461424762678867
0.019980178833007803,-0.010265730138382197,0.0002920640151594859,-0.018483997200292722,0.008218267061910527
0.015958871459960902,-0.006837728821925427,0.0002894862480147648,-0.014763818574958275,0.007926089753032849
0.0127570381164551,-0.0038915822873104027,0.0002855540767666533,-0.011801749063378443,0.007910166776068041
0.0101955703735352,-0.0018816555331433212,0.0002856399461554884,-0.009432092465983309,0.007550436932839987
0.00814811477661133,-6.182841418882384e-05,0.00028316005186201503,-0.007537957091241656,0.0074761286770528325
0.006483406829833981,0.0016253796444101966,0.0002781704560987149,-0.005997907961315754,0.007623287605725951
0.00520144653320313,0.0026266684229269946,0.0002748046637604301,-0.004811945076205585,0.00743861349913258
0.00414888954162598,0.003567266166534075,0.0002718357820710533,-0.003838207020702317,0.007405473187236392
0.00333309669494629,0.004208716201068419,0.00027310181715162386,-0.003083503430705659,0.007292219631774079
0.0026632877349853502,0.004779264420290477,0.00026952673124649914,-0.0024638519729221252,0.007243116393212603
0.0021259685516357403,0.005268611246100651,0.00026453017569579956,-0.001966769020676966,0.007235380266777617
0.0016990573883056603,0.0056951683650812365,0.0002688574748878784,-0.0015718263720791105,0.007266994737160347
0.00136169939041138,0.005844325608421371,0.0002661990113707924,-0.0012597308527801216,0.007104056461201493
0.00109058628082275,0.006152652406229205,0.00026460365901288894,-0.0010089195862503066,0.007161571992479512
0.0008771306991577151,0.006388224450297493,0.000272570429218576,-0.0008114482619513835,0.007199672712248877
0.000693117237091064,0.006489158091112011,0.00026485111249436466,-0.0006412143343132034,0.007130372425425214
0.0005753486633300781,0.006657474737074634,0.0002601279791304952,-0.0005322646594442107,0.007189739396518844
0.00046616735458374,0.0067271032591070794,0.00027122937395276996,-0.0004312592068875178,0.007158362465994597
0.00037538740634918203,0.006870031194900314,0.0002768725449693244,-0.0003472771603285438,0.007217308355228858
0.000323863649368286,0.006957878242957078,0.00026366406574894393,-0.00029961167205923403,0.007257489915016312
0.000263752579689026,0.006968716659316199,0.0002683774116881596,-0.00024400191736462202,0.007212718576680821
0.00021468234062194802,0.007046667514528251,0.000270292170785296,-0.00019860621950254124,0.007245273734030792
0.000164385330677032,0.007138094017936481,0.00025533320508040904,-0.00015207561540859542,0.007290169633345076
-7.48321294784546e-05,0.007219082614338142,0.0002601701395444298,6.922845302498586e-05,0.007149854161313156
-0.00010427428483963,0.007235980732061705,0.00026784120679191465,9.646588277048451e-05,0.00713951484929122
-0.00015211777687072802,0.007310847857644108,0.00025901482482083285,0.0001407266964572014,0.007170121161186907
-0.00018155990839004502,0.007349127694317084,0.0002646820153587569,0.00016796410414619858,0.007181163590170885
-0.000230630159378052,0.007427980509779122,0.0002654484375508701,0.00021335981303652993,0.007214620696742593
-0.00031650309562683104,0.007508350996482251,0.00026765612034220627,0.0002928023008375463,0.007215548695644705
-0.000409736585617065,0.007555231931516651,0.0002582887815971519,0.0003790541598602503,0.0071761777716564
-0.000518917894363403,0.007647452235101255,0.000274328294084049,0.0004800596124169431,0.007167392622684312
-0.0006293259620666501,0.007715433329921019,0.00025555040512267966,0.0005821999601772505,0.007133233369743769
-0.000825606918334961,0.007771580353701117,0.0002653613364114044,0.0007637827516255726,0.0070077976020755444
-0.0010292484283447299,0.007922437434898068,0.0002641131690171873,0.0009521749142955853,0.0069702625206024835
-0.00130281505584717,0.008165750492865467,0.00026178424501580467,0.001205255971232622,0.006960494521632844
-0.00163894634246826,0.0083459639775934,0.0002647399565014156,0.0015162166394410012,0.006829747338152398
-0.00205358982086182,0.008693684097120244,0.0002651058130562385,0.0018998102477767093,0.0067938738493435345
-0.0025933626174926803,0.009044853768667002,0.00026186969519795836,0.002399163078655102,0.006645690690011899
-0.0032472236633300806,0.009577667956290755,0.00025455127887180894,0.0030040608546786397,0.006573607101612115
-0.00408387145996094,0.010131113916740077,0.00027267023583594314,0.003778057707249746,0.006353056209490331
-0.00512048034667969,0.010827516656063609,0.0002612826315271637,0.004737041904541012,0.006090474751522597
-0.006428202819824221,0.01179815691178057,0.0002581497123133221,0.005946837809492107,0.005851319102288463
-0.00806592178344727,0.01306109384791195,0.0002471400873625405,0.007461918980260471,0.005599174867651478
-0.0101060173034668,0.014400680599767521,0.0002536077608931552,0.009349245424910417,0.005051435174857104
-0.0126760726928711,0.01639628092081568,0.0002524678414704228,0.011726846597521892,0.004669434323293789
-0.0158950805664062,0.01883233324792774,0.00024829158238951263,0.014704804553726324,0.004127528694201418
-0.019913934326171903,0.02204216097692607,0.000242126255730145,0.01842271330042759,0.0036194476764984823
-0.0249632614135742,0.0260174118479624,0.0002335627285702007,0.023093930136220853,0.002923481711741545
-0.031308047485351605,0.031229929060187248,0.0002339218296153909,0.02896359771864734,0.002266331341539907
-0.0392157165527344,0.0380838870804591,0.00020881490401333276,0.03627911446772046,0.0018047726127386396
-0.0491414031982422,0.046680023974997584,0.00019267836201081437,0.045461532988592644,0.001218490986404941
-0.06156353149414061,0.057637946759064876,0.0001885976983603551,0.05695345138242305,0.0006844953766418337
-0.0771347534179688,0.07169257078997651,0.0001541379502323059,0.07135864889595546,0.00033392189402104674
-0.09666224975585941,0.08940403777118247,0.00013595358692566602,0.089423861958113,-1.9824186930528953e-05
-0.121102917480469,0.11138852320916157,0.00011074990265566164,0.11203433194292849,-0.0006458087337669128
-0.15172275390625,0.13919967303193767,0.00010386911424046986,0.14036125411404277,-0.001161581082105114
-0.190078515625,0.17431103393048308,0.000135880937881109,0.17584480999960048,-0.0015337760691174003
-0.238126879882813,0.2181239828054524,0.0002211615406577128,0.22029515440557007,-0.002171171600117685
-0.298347119140625,0.27311123573945434,0.00036470361328313654,0.27600590370094,-0.0028946679614857123
-0.37376809082031304,0.3425272031762527,0.000524425221611922,0.3457791044826893,-0.0032519013064366354
-0.46826142578125,0.4294165173024519,0.0007132582645017402,0.4331964671330589,-0.00377994983060702
-0.58665078125,0.538651177629318,0.0009617639426353793,0.5427204375298448,-0.0040692599005268115
-0.7349619140625,0.6756982983435765,0.0012704672378939747,0.6799255439801261,-0.004227245636549486
-0.9207774414062501,0.8472008731450879,0.0016916996057614174,0.8518265923090187,-0.004625719163930856
-1.1535470703125001,1.0625963875581514,0.0021529976695867626,1.0671656643451726,-0.004569276787021016
-1.4451826171875,1.3326213926200976,0.002813373099231743,1.3369625804287228,-0.004341187808625363
-1.8105265625,1.6696800826593272,0.003572958605181577,1.6749483671797392,-0.00526828452041197
-2.268218359375,2.09338871060936,0.00470544482688264,2.098366694049684,-0.004977983440324362
-2.8416677734375,2.625049480630549,0.006186346541784295,2.6288743262701653,-0.0038248456396161802
-3.560008203125,3.2884105636303644,0.009261426431973694,3.2934230573989147,-0.005012493768549938
-4.459966796875,4.1210300540286156,0.014810365954669339,4.12598978596959,-0.0049597319409749345
-5.58745234375,5.165876189036776,0.017668008980784817,5.169045499634127,-0.0031693105973501336
-6.9999703125,6.4698233932142255,0.01356332547696708,6.475789468141826,-0.005966074927601407
-5.587520312500001,5.164801195362992,0.01733292668981026,5.169108378660146,-0.0043071832971542275
-4.46004765625,4.119003761148531,0.014859519811772805,4.126064590328131,-0.007060829179599751
-3.5600796875,3.285709110237774,0.009455148040292698,3.293489188788348,-0.007780078550574485
-2.8417070312500003,2.6212677585330804,0.006685917402877272,2.6289106443282977,-0.007642885795217165
-2.268289453125,2.090763385741369,0.004814397589556587,2.0984324640654046,-0.00766907832403587
-1.8105927734375,1.6664159280157234,0.0038187029191825146,1.6750096200240512,-0.00859369200832775
-1.4452537109375,1.3276952958893464,0.0030300602266414988,1.337028350444444,-0.009333054555097637
-1.1536341796875,1.0578907439142364,0.002459030847019263,1.0672462506831164,-0.00935550676887989
-0.92083876953125,0.8421035399603036,0.001918607842947917,0.851883327981921,-0.009779788021617327
-0.7350354980468751,0.6701295977333169,0.0016195198125077911,0.6799936177532662,-0.009864020019949222
-0.586730517578125,0.5330618677692424,0.0013076987173539995,0.5427942029389606,-0.009732335169718265
-0.4683251953125,0.42330801462417056,0.0010621226320800263,0.43325546139166593,-0.009947446767495349
-0.373847827148438,0.3358792406070799,0.0009227541778837185,0.34585286989180514,-0.00997362928472522
-0.298417016601562,0.26621027307503164,0.0007839414708353006,0.2760705670096654,-0.009860293934633769
-0.23819680175781302,0.21065787639711384,0.0006737137727112135,0.220359840300153,-0.009701963903039157
-0.19015703125,0.16630098801439167,0.0005733688658861019,0.17591744611586396,-0.009616458101472282
-0.151791455078125,0.13116881371207612,0.0005280783774832488,0.1404248107157733,-0.009255997003697196
-0.12117161865234401,0.10296276012898553,0.0004643327198728912,0.11209788854465902,-0.009135128415673488
-0.09673217773437501,0.0809145703258018,0.0004278796679195619,0.08948855349916014,-0.008573983173358347
-0.07720344848632811,0.06336267564507927,0.0004142267832862337,0.07142219985122167,-0.008059524206142392
-0.0616469543457031,0.04967970521704423,0.0003627424388120298,0.05703062725595297,-0.0073509220389087445
-0.049206420898437506,0.03846971705278059,0.00035466402880451236,0.04552168194914119,-0.007051964896360598
-0.039284414672851604,0.029604469445066086,0.0003368093122184564,0.03634266824621889,-0.006738198801152802
-0.031353436279296897,0.02265169506189573,0.0003201774394372947,0.029005587650130008,-0.006353892588234278
-0.0250405471801758,0.017173005607621864,0.0003215654802632014,0.023165428489935608,-0.005992422882313742
-0.0199998062133789,0.012853949141688274,0.00031055857843479063,0.018502154817742526,-0.005648205676054253
-0.0159527374267578,0.009231512394693882,0.0002947170740442196,0.014758143878375212,-0.005526631483681331
-0.0127374092102051,0.006450286918427476,0.0002978667243906512,0.011783590034312575,-0.0053333031158850994
-0.0101906639099121,0.004321701012478606,0.0002917781646966389,0.009427553414524826,-0.005105852402046219
-0.00813584747314453,0.002545767336719822,0.0002897840718295994,0.007526608403883518,-0.004980841067163696
-0.006496900939941411,0.001012970643223722,0.0002812136230321191,0.0060103915879905125,-0.004997420944766791
-0.00520758018493652,-4.31226750614435e-05,0.0002806007535725477,0.004817619419884644,-0.004860742094946088
-0.0041672908782959,-0.0008504798754831849,0.0002804245693380107,0.003855230404643533,-0.004705710280126718
-0.00332205581665039,-0.0016658143861139896,0.0002735893164630398,0.003073289329760124,-0.004739103715874114
-0.0026485668182373,-0.0023809781085502415,0.0002712907620138348,0.0024502334069307547,-0.004831211515480997
-0.0021382360458374,-0.0027646309853335146,0.0002711581867418783,0.0019781178844871074,-0.004742748869820622
-0.0017100980758667,-0.0031657422133885365,0.0002812985693691332,0.0015820402965726404,-0.0047477825099611765
-0.0013702866554260301,-0.0035094048254675197,0.0002755493043393102,0.0012676750750924236,-0.0047770799005599435
-0.0011004003524780301,-0.0037697577553089897,0.0002728112559728003,0.00101799874787923,-0.004787756503188219
-0.000875903987884521,-0.004028826339359287,0.0002832685296179376,0.0008103134108607702,-0.004839139750220057
-0.000701704597473145,-0.00404789180838687,0.00028245856223231894,0.0006491586448515087,-0.004697050453238379
-0.0005863894462585451,-0.004156089384828974,0.00027170191161749564,0.0005424786721637405,-0.0046985680569927146
-0.000457580089569092,-0.004339786210963116,0.0002572598389232496,0.00042331498457521773,-0.004763101195538333
-0.000365573358535767,-0.004357601778920103,0.000264439001366938,0.00033819802075612816,-0.004695799799676231
-0.000299328517913818,-0.004501797875611508,0.0002793396938397383,0.00027691381209994306,-0.004778711687711451
-0.000250258255004883,-0.004456705092058976,0.000274605761887338,0.00023151809218136207,-0.004688223184240338
-0.000220816111564636,-0.0044877098398527545,0.0002635696874847607,0.00020428067346411343,-0.004691990513316868
-0.00017174586057663,-0.004489327941881128,0.00026879631199789396,0.000158884964573783,-0.004648212906454911
-0.000143530476093292,-0.004561468908790716,0.0002659038183608697,0.00013278244106014876,-0.004694251349850865
0.00011286157369613601,-0.004664322884329862,0.0002706339665465627,-0.00010441012713928566,-0.004559912757190577
0.00014107697010040302,-0.004761027504207306,0.00027534947738050875,-0.0001305126616811704,-0.004630514842526135
0.000175426149368286,-0.0047589092393830945,0.0002715304449790209,-0.00016228966121287696,-0.004596619578170218
0.00022940340042114298,-0.004779668425010262,0.00027714980269041134,-0.00021222491783291544,-0.004567443507177347
0.000320183372497559,-0.00486539301524916,0.0002658464301152021,-0.00029620698644839056,-0.00456918602880077
0.00038642821311950703,-0.004965822716308234,0.0002684876587709614,-0.0003574911951045748,-0.0046083315212036595
0.0005164643764495849,-0.005033653433012383,0.00026948652149149125,-0.00047778982200971404,-0.004555863611002668
0.000640366744995117,-0.0051666027205879515,0.00027132890466540584,-0.0005924139728967802,-0.004574188747691172
0.000817019653320312,-0.005323671575386219,0.00026304640270847444,-0.0007558385293132717,-0.004567833046072948
0.00104274272918701,-0.005467555054438096,0.0002650003498406394,-0.0009646587174223396,-0.004502896337015757
0.00131508264541626,-0.005657729365816186,0.0002676867566274483,-0.0012166049232687666,-0.004441124442547419
0.00165121383666992,-0.0059169055660428915,0.00026648108366305587,-0.0015275655032511435,-0.004389340062791749
0.00205972366333008,-0.006233988581808152,0.00027016181757693155,-0.0019054847679077828,-0.00432850381390037
0.00260563011169434,-0.006614630765614521,0.0002685140466910388,-0.002410511942465244,-0.004204118823149277
0.0032545841217041004,-0.007050983471530592,0.0002664523699059423,-0.0030108701376743204,-0.004040113333856271
0.00408509826660156,-0.0076324835982750396,0.00025825539104715374,-0.0037791926465663584,-0.0038532909517086816
0.00511679992675781,-0.008328491040618499,0.00025478695860542747,-0.004733637086591158,-0.003594853954027341
0.006423295593261721,-0.009340660479875359,0.0002572219172494022,-0.005942298052225641,-0.003398362427649718
0.00807573623657227,-0.010512665426861348,0.0002571713468317722,-0.0074709984947934046,-0.003041666932067944
0.0101096984863281,-0.011898485720480032,0.00025979703738656225,-0.009352650948668273,-0.002545834771811759
0.0126944732666016,-0.01392757895440188,0.00025054574966690166,-0.011743869275655103,-0.002183709678746777
0.015909800720214803,-0.016439842115757927,0.00025112437105051375,-0.014718422413909667,-0.0017214197018482582
0.0199163864135742,-0.0195371491717651,0.0002430237439630501,-0.018424981767444712,-0.0011121674043203839
0.0249767562866211,-0.023614416759908698,0.0002327591815447247,-0.02310641446870366,-0.0005080022912050357
0.031303137207031304,-0.028610719777912404,0.00023594126815192036,-0.028959055138148754,0.00034833536023634864
0.0392255310058594,-0.0355586926479887,0.00022047833795446796,-0.0362881939822534,0.0007295013342647016
0.049140176391601606,-0.04425059377771689,0.00020256773382765672,-0.045460398049276055,0.0012098042715591683
0.061557403564453106,-0.055083462404041904,0.0001855875860840169,-0.056947782332304214,0.0018643199282623124
0.0771592895507812,-0.06921451100909169,0.00016114795297515757,-0.0713813476822877,0.0021668366731960103
0.09665979614257811,-0.08680910497773037,0.00018571139705257175,-0.08942159207947972,0.0026124871017493678
0.12109432373046901,-0.10885402243377544,9.644757795858143e-05,-0.11202638172124792,0.0031723592874724786
0.151719079589844,-0.1366959457721087,0.000605420124906413,-0.14035785494255743,0.003661909170448743
0.190065026855469,-0.1717330214680506,0.00011954084120254136,-0.1758323313135822,0.0040993098455316054
0.23812934570312502,-0.21525769272444745,0.0003882890325236505,-0.2202974355771314,0.0050397428526839615
0.298331176757812,-0.27058438929202305,0.00035728211839915837,-0.2759911551362878,0.0054067658442647605
0.373777905273438,-0.33989476028804305,0.0005149504884859288,-0.3457881839972222,0.005893423709179172
0.46826142578125,-0.4268737992827033,0.0006873550451043552,-0.4331964671330589,0.006322667850355624
0.5866470703125001,-0.5360102211095412,0.0009578494608625561,-0.5427170044795736,0.00670678337003248
0.734968017578125,-0.6730475985847627,0.0012904466791872039,-0.6799311904443879,0.006883591859625165
