Magnetic Field (T),Moment (emu/cm3),M. Std. Err. (emu/cm3),Moment (emu/cm3)_lin-part,Moment (emu/cm3)_y-lin-subtract
6.999965625000001,-3636.1376401390476,7.911941115367677,-3776.9079913732144,140.77035123416667
6.999959375,-3636.0923557066667,7.867257422006819,-3776.904619117376,140.81226341070948
5.58753359375,-2869.2795528142856,9.637089063964096,-3014.8148452229957,145.53529240871023
4.460055078125,-2261.779934677143,9.03105011953503,-2406.471484141752,144.69154946460927
3.56008828125,-1780.9778095685715,5.72044670895181,-1920.884558550565,139.9067489819937
2.8417267578125003,-1401.608024194286,3.8697238070090383,-1533.2847439348855,131.6767197405996
2.26829921875,-1102.7830073409523,2.9188236857794574,-1223.8856453130786,121.10263797212632
1.8105927734375,-868.5150926702438,2.2730290885602,-976.9251281314234,108.4100354611796
1.44524404296875,-683.9820819421734,1.7316485914344761,-779.7972258432633,95.81514390108985
1.15361455078125,-539.1267030840447,1.4494465695657048,-622.4453446241207,83.31864154007593
0.9208547851562501,-424.9003494570076,1.1416383222021047,-496.8572680599278,71.95691860292015
0.7350306152343751,-334.9799986578762,0.9263465042944562,-396.59380535639144,61.61380669851528
0.5867244140625,-263.72171624863523,0.7702992438575524,-316.5735729175703,52.85185666893503
0.46834609375,-207.25261576252,0.6525115850601543,-252.70125583121037,45.44864006869037
0.37384414062500004,-162.43414733343428,0.5300361033643924,-201.71169372772658,39.277546394292315
0.29840107421875,-126.82873996904381,0.4504742819239029,-161.0055623453363,34.176822376292485
0.238218896484375,-98.54210638292287,0.39521390846891813,-128.5336103101141,29.991503927191243
0.190154577636719,-76.00863763309496,0.34474854769168767,-102.59998153524107,26.591343902146107
0.151779187011719,-58.065580254498286,0.30493674438072665,-81.89411992272333,23.828539668225048
0.12116425781250001,-43.82539257733848,0.2788043597434514,-65.37550012623606,21.55010754889759
0.09672849731445311,-32.56213929393629,0.25203413102580857,-52.190918366185606,19.62877907224932
0.0772206237792969,-23.64040612003038,0.2338493445446905,-41.66523189902821,18.024825778997826
0.061640820312500004,-16.460814856101333,0.24604297925570764,-33.25897858721007,16.79816373110874
0.049222366333007805,-11.053509617459525,0.20830505939637906,-26.558465957814903,15.504956340355378
0.0392782806396484,-6.517821906673619,0.19929169686054476,-21.19302579222135,14.675203885547727
0.031363250732421896,-3.0326137656098577,0.19628491804198572,-16.922384861957955,13.889771096348097
0.025029507446289102,-0.10096113720667144,0.20246655857150764,-13.504944418069863,13.403983280863192
0.0200108474731445,2.168994979062343,0.2113590845486981,-10.797071554972092,12.966066534034434
0.0159613250732422,3.8898955656681617,0.1731971743558686,-8.612107466175466,12.502003031843627
0.012760718536377,5.292174381934771,0.1719139814568467,-6.885185213421186,12.177359595355957
0.010193116760253902,6.487626943142781,0.16584969721422096,-5.499807600669925,11.987434543812705
0.00813830108642578,7.314714781435477,0.16502979513774382,-4.391109336272325,11.705824117707802
0.00651530227661133,7.753312996215019,0.30611345214499047,-3.515402582387028,11.268715578602047
0.00520144653320313,8.62717155421502,0.16358339052873525,-2.8064973501859733,11.433668904400992
0.00414888954162598,9.083177357772257,0.1632314613172581,-2.238578716605043,11.321756074377301
0.0033232826232910202,9.429374517308801,0.16251809037403525,-1.7931134765393355,11.222487993848137
0.0026547004699707002,9.788445324646094,0.15975585082559335,-1.4323726653635624,11.220817990009657
0.00213210220336914,9.997650913758667,0.15666205686520573,-1.150399056470987,11.148049970229653
0.0016990573883056603,10.190289718170668,0.15657395523631143,-0.9167449915432049,11.107034709713874
0.00136537961959839,10.35432217750581,0.16119628259548,-0.7367055029672775,11.091027680473088
0.00109794683456421,10.458863830567905,0.1543624951070981,-0.5924092196622022,11.051273050230108
0.000891851711273193,10.667087702392475,0.1823155258590943,-0.4812083424234814,11.148296044815957
0.000709065103530884,10.708163944208,0.1584453655064562,-0.3825838296069734,11.090747773814973
0.000566761350631714,10.754503981710286,0.15771033141312,-0.3058022837651288,11.060306265475417
0.000475981426239014,10.832475471638572,0.1558254947960495,-0.25682098296123446,11.089296454599808
0.00035821280479431204,10.844502238809048,0.15859254849250096,-0.19327763556551042,11.037779874374557
0.00029810175895690904,10.844390187366857,0.15873704722170953,-0.16084406352306357,11.00523425088992
0.000252711772918701,10.915573957960572,0.15588399307301143,-0.13635340025698126,11.051927358217553
0.00021958935260772702,10.933374344868097,0.1561174738293638,-0.11848183621395922,11.051856181082055
0.00016929235458374,10.937471126809715,0.15626509833902,-0.09134354097713378,11.028814667786849
-8.58729302883148e-05,11.036005755300572,0.15538185828172574,0.046333678481252694,10.98967207681932
-0.00011408833265304601,11.019184420504097,0.1755975041654962,0.06155760733749819,10.957626813166598
-0.00015211777687072802,11.110023348534,0.15583279796114954,0.08207680978333091,11.02794653875067
-0.000176652884483337,11.115917313036096,0.15682015807243524,0.09531499536531578,11.020602317670782
-0.000228176665306091,11.115295887873238,0.15358588927498762,0.12311521467499581,10.992180673198241
-0.000322636866569519,11.174915928774857,0.15929502221137715,0.17408224910504894,11.000833679669809
-0.00041832385063171395,11.212767538732763,0.15476557566153049,0.22571120760795665,10.987056331124805
-0.0005164643764495849,11.230064880243335,0.15573724349288381,0.27866400139243847,10.951400878850897
-0.0006465005397796631,11.284135973419714,0.1564064619063105,0.3488264351470877,10.935309538272628
-0.000814566135406494,11.352016898704761,0.15806341957467526,0.439508064915502,10.912508833789259
-0.00103660898208618,11.456745766873619,0.15819771649659525,0.5593137106827644,10.897432056190855
-0.0013089488983154302,11.568383231658382,0.1528664500214781,0.7062576902792594,10.862125541379124
-0.0016475336074829102,11.632348933985906,0.15682971169556573,0.888944772233527,10.743404161752379
-0.00205604343414307,11.850409179794859,0.15668002295924383,1.1093607158999994,10.74104846389486
-0.00260195007324219,11.993686816461715,0.15653798294159144,1.4039106120299765,10.589776204431738
-0.0032742126464843802,12.276237299082764,0.15424839049364286,1.7666372340167162,10.509600065066047
-0.004101045989990231,12.490652091453335,0.15590014684650572,2.2127642051932472,10.277887886260087
-0.00512784080505371,12.892633122914571,0.15336190431691335,2.7667825747497172,10.125850548164856
-0.00643310928344727,13.423378147820477,0.14655447675071334,3.47105445421801,9.952323693602466
-0.008067148590087891,14.02114416217362,0.14723449574668002,4.35271822888389,9.668425933289729
-0.0101096984863281,14.797375405039428,0.1513154028318162,5.454798358868553,9.342577046170875
-0.0126822052001953,15.70175465358638,0.16018491064352286,6.84282248441078,8.858932169175601
-0.015912255859375002,16.977860504820573,0.1450600675357581,8.585631635305164,8.392228869515407
-0.0199151596069336,18.591890746214666,0.14510317058408,10.745442120496204,7.8464486257184625
-0.0249828903198242,20.614841040689715,0.13307270373231428,13.479791637768868,7.135049402920848
-0.0312847351074219,23.073385656638095,0.1417345927031524,16.88002089799061,6.193364758647483
-0.0392243041992188,26.594376536534003,0.12290005189133334,21.163902213603144,5.430474322930858
-0.049152441406250004,30.84210640476695,0.11485648323427619,26.520737199015787,4.321369205751166
-0.0615708923339844,35.710877799796386,0.6899896801713057,33.22124818180167,2.489629617994717
-0.0771273864746094,43.314375287418386,0.0928224242760604,41.614924691816974,1.6994505956014097
-0.0966401733398438,52.02931534557781,0.07840346687921211,52.14326219994097,-0.11394685436316276
-0.121090649414062,63.22711276649239,0.06638412772365954,65.3357839100164,-2.1086711435240177
-0.151726440429687,77.23543517400638,0.051035448111799435,81.86565992765095,-4.6302247536445735
-0.19006870117187502,95.01643287511666,0.07426087015978439,102.55364594965167,-7.537213074534996
-0.23811953125000002,117.34048981643905,0.12429733352733238,128.47999671143654,-11.139506894997492
-0.298355688476562,145.33021790138096,0.20283558361137144,160.981073971886,-15.650856070505053
-0.373772998046875,180.87298206909432,0.2985314222941219,201.67330797181833,-20.80032590272403
-0.46828349609375003,225.54774671394858,0.4242240072890905,252.66748058133095,-27.11973386738238
-0.5866421875000001,281.7976753447743,0.5745970253840743,316.529206676699,-34.73153133192472
-0.734969287109375,352.9364350788581,0.777018343387122,396.56071509597916,-43.62428001712106
-0.9207921875,442.6769456450067,0.9813707569339334,496.8234928100483,-54.14654716504158
-1.15356796875,556.4060537959781,1.2605691441793907,622.4202107798267,-66.0141569838485
-1.44517158203125,701.0524409295867,1.6676652105161047,779.7581287521391,-78.70568782255239
-1.8105400390625002,885.0852515328219,2.1445408643336665,976.8966747227887,-91.81142318996679
-2.2682441406250002,1118.5716585742857,2.8107265670512667,1223.8559273085048,-105.28426873421897
-2.84164453125,1417.1565083495238,3.82804467447041,1533.2403776940141,-116.08386934449015
-3.5600132812500003,1796.2139175438097,5.633237746988944,1920.8440914805067,-124.63017393669706
-4.459973828125,2275.9083289238097,8.99944408671377,2406.4276448158557,-130.51931589204597
-5.587451171875,2879.3734238142856,10.317903554726858,3014.77037359913,-135.39694978484417
-6.99996796875,3643.3688653533336,7.731457317300315,3776.909255969153,-133.5403906158196
-5.58753359375,2880.5721178133335,10.039553579270763,3014.8148452229957,-134.2427274096626
-4.460053515625,2273.552506481905,9.049615735935905,2406.4706410777926,-132.91813459588766
-3.560084765625,1793.4286149666666,5.75591102993322,1920.882661656656,-127.45404668998938
-2.8417083984375,1414.6126129104762,3.9408711874672,1533.2748379333605,-118.66222502288434
-2.2682968750000003,1116.8210181,2.9966137998781814,1223.8843807171395,-107.06336261713942
-1.810596484375,882.2416557373048,2.288220930302086,976.9271304083273,-94.6854746710226
-1.4452402343750002,698.0481353357143,1.8200959550393525,779.7951708748619,-81.74703553914762
-1.1536390625000001,553.4514359301486,1.4954013696624764,622.4585701899862,-69.00713425983757
-0.920836328125,439.1209370942219,1.167309027408981,496.84730936690556,-57.726372272683655
-0.7350256835937501,349.29925490470384,0.9582003807948858,396.59114443576914,-47.29188953106532
-0.586732958984375,278.0159791271257,0.7750303053378886,316.57818342359906,-38.562204296473304
-0.46833134765625,221.52290609049808,0.6604441333528533,252.69329941509213,-31.170393324594027
-0.373850268554687,176.6775922683705,0.560479902704319,201.71500011919267,-25.037407850822177
-0.298420727539063,141.02642966659334,0.47034771399615716,161.01616650920278,-19.98973684260945
-0.238204150390625,112.7333019390362,0.3991502575458048,128.52565389399587,-15.792351954959674
-0.19013372802734402,90.20327374317039,0.3571452987734381,102.58873190053085,-12.385458157360459
-0.15179636230468702,72.26901714992476,0.3164796605183181,81.9033870398408,-9.634369889916035
-0.12115567626953101,58.07237198074324,0.2823865749364667,65.3708698608956,-7.298497880152353
-0.09671991577148441,46.74243560386086,0.2571800416833343,52.186288100845296,-5.4438524969844355
-0.0771875,37.80570076655676,0.2439918097077124,41.64735960172946,-3.841658835172704
-0.06164818115234371,30.80627398395057,0.22908949196200382,33.262950208831995,-2.4566762248814187
-0.049212548828125,25.285896588299146,0.21533009604193237,26.553168815709693,-1.2672722274105466
-0.0392880950927734,20.731470411804192,0.20464817852808384,21.198321287717267,-0.4668508759130764
-0.0313485290527344,17.235665688302003,0.2005475100018305,16.914441618714083,0.3212240695879202
-0.0250442276000977,14.337388879013142,0.18722111490014764,13.512886838009093,0.8245020410040487
-0.0200120742797852,12.160778714181047,0.1836940193593381,10.797733491909124,1.3630452222719247
-0.0159613250732422,10.29987200934962,0.17711006936138476,8.612107466175466,1.6877645431741541
-0.012761944580078101,8.937328383699068,0.1742617285521924,6.885846738705814,2.0514816449932534
-0.0101894371032715,7.799946339308762,0.17826738222900856,5.497822201511291,2.302124137797471
-0.008129713439941412,7.026960411053381,0.17487192829883622,4.386475777713399,2.6404846333399816
-0.00651039505004883,6.250759997505143,0.17433243989420286,3.5127548346390687,2.738005162866074
-0.00519776649475098,5.650810530103581,0.17370101941212382,2.804511745201165,2.8462987849024164
-0.00412680816650391,5.162013956764629,0.17299405693261144,2.226664469217712,2.9353494875469166
-0.00333064308166504,4.781409944204724,0.17495227327214097,1.7970848923351102,2.984325051869614
-0.00265592727661133,4.442961091023333,0.1707161946975486,1.4330346023005545,3.0099264887227792
-0.00213087558746338,4.23030429963801,0.16632291373937141,1.149737222447079,3.080567077190931
-0.00171745872497559,3.981784623959286,0.16599871631494667,0.926673633945732,3.055110990013554
-0.00136415300369263,3.8733831789334383,0.1668045194356305,0.7360436689433697,3.1373395099900687
-0.00110530729293823,3.747834216889524,0.17582117327135335,0.5963806354579768,3.151453581431547
-0.000886944770812988,3.681422695390248,0.16936307990509716,0.47856074904514373,3.202861946345104
-0.000702931308746338,3.5945831044848098,0.17076790074721715,0.3792742735633757,3.2153088309214337
-0.0005827092170715331,3.551889293533848,0.16541915606836954,0.3144071294784826,3.2374821640553653
-0.0004723011493682861,3.4440161032230194,0.16701834924515713,0.2548352493350756,3.1891808538879434
-0.00037048037052154505,3.415979814541867,0.16729456728380193,0.19989673478857017,3.2160830797532967
-0.000323863649368286,3.4074671841446382,0.16841869838100762,0.17474417317790356,3.2327230109667346
-0.000268659615516663,3.363861154441505,0.16974062104872095,0.14495823310620037,3.2189029213353044
-0.00021836261749267602,3.3763936925767335,0.15430144949815716,0.11781993786937496,3.2585737547073585
-0.000184013426303864,3.360423196868162,0.15826861143687332,0.0992864561855659,3.261136740682596
-0.000149664258956909,3.2945216388722383,0.16963659361050476,0.0807529873658915,3.213768651506347
0.000110408055782318,3.1830955708985527,0.15126505016211714,-0.05957187371133932,3.242667444609892
0.000137396705150604,3.194987825973581,0.17135973489955333,-0.07413389457489879,3.2691217205484797
0.00016929235458374,3.166104400353686,0.1506106325947724,-0.09134354097713378,3.25744794133082
0.000234310436248779,3.1438870920926574,0.17023740757441905,-0.12642475785445836,3.2703118499471158
0.000303008770942688,3.0972905076779145,0.16116891357381907,-0.16349169549380665,3.2607822031717215
0.000398695755004883,3.0976528401840384,0.1561492163340762,-0.2151206539967144,3.3127734941807527
0.000510330581665039,3.040000727307505,0.16374437989988286,-0.27535444534884074,3.3153551726563455
0.000651407527923584,2.964786639940914,0.16048823459018285,-0.3514740542536956,3.31626069419461
0.000825606918334961,2.9464902523433047,0.1712943415931143,-0.4454652400657077,3.3919554924090125
0.0010353822708129901,2.8565278827616667,0.1504751459943076,-0.558651825202317,3.4151797079639836
0.0013089488983154302,2.683593764335295,0.16571266425412476,-0.7062576902792594,3.3898514546145546
0.0016254520416259801,2.6337807344735427,0.15546693533930192,-0.8770304219331178,3.510811156406661
0.00207321796417236,2.4559509793925716,0.1667023758496343,-1.1186274213655287,3.5745784007581
0.0025835485458373998,2.2470166062849524,0.1632714741206819,-1.39398186671437,3.640998472999322
0.0032521305084228505,2.0182048743321905,0.14838580495330572,-1.7547225749770587,3.7729274493092495
0.00408141784667969,1.7954042693278858,0.17966019886003334,-2.202173625853738,3.997577895181623
0.00512784080505371,1.3594526515205811,0.16444664777231047,-2.7667825747497172,4.126235226270298
0.006425749206542971,0.8568488571685515,0.15066756062000478,-3.4670832442483936,4.323932101416945
0.008067148590087891,0.22361456059278953,0.14669068703623714,-4.35271822888389,4.576332789476679
0.010107244873046902,-0.45221568392007144,0.15773538814416857,-5.453474484994602,5.00125880107453
0.012683432769775401,-1.4536142270549526,0.14806718290440382,-6.843484833000106,5.389870605945153
0.0158987609863281,-2.7036419683478576,0.2598442409903667,-8.578350328998264,5.874708360650406
0.0199163864135742,-4.288524847181114,0.14408538983831334,-10.746104057433183,6.457579210252068
0.024957127380371102,-6.236630433350553,0.14800512862339144,-13.465890962092098,7.229260528741546
0.0313068206787109,-8.975230855527887,0.13869695228626955,-16.89193740946569,7.9167065539378045
0.0392120361328125,-12.179104638268477,0.1312444269386257,-21.15728284423322,8.978178205964742
0.0491426300048828,-16.474963820978857,0.11899388177786667,-26.515443350129157,10.040479529150298
0.0615659851074219,-21.9550346375521,0.12262700565404573,-33.21860043405371,11.263565796501613
0.0771261596679688,-29.15658215538162,0.37066471943581236,-41.61426275488001,12.457680599498387
0.09667207031250001,-37.7609260438702,0.08386373907245115,-52.16047256030268,14.399546516432485
0.121098010253906,-48.88908068009505,0.0610982333844482,-65.33975553163849,16.450674851543432
0.151712939453125,-62.98420037310791,0.05164395750247362,-81.85837532812575,18.874174955017843
0.19006870117187502,-80.71283200121525,0.07077393667086868,-102.55364594965167,21.840813948436423
0.23811953125000002,-103.11481390943334,0.15218048712283427,-128.47999671143654,25.365182802003197
0.298336083984375,-131.1027137105419,0.2040953620700581,-160.97049615376878,29.867782443226865
0.373766870117188,-166.63057691864094,0.3056682715281572,-201.67000158035228,35.039424661711315
0.46826264648437504,-211.37075263464476,0.4335170854577467,-252.65623094662072,41.28547831197595
0.586665478515625,-267.70021795715047,0.5725779791834533,-316.54177359884596,48.8415556416955
0.734969287109375,-338.8035549665438,0.7584704036930886,-396.56071509597916,57.757160129435334
0.92077861328125,-428.5776948834409,1.0248391965388572,-496.81616869189975,68.23847380845878
1.1535458984375,-542.2654648219172,1.295676080811724,-622.408302501398,80.14283767948085
1.44519736328125,-687.0094821468076,1.6423526908888002,-779.7720393074717,92.76255716066409
1.810519140625,-871.0613362406363,2.0607805875547713,-976.8853987423297,105.82406250169348
2.268221875,-1104.9067991466668,2.793175190612153,-1223.843913647081,118.93711450041425
2.84164453125,-1403.1509226038097,3.8578648433618863,-1533.2403776940141,130.08945509020444
3.560005078125,-1781.6738496038097,5.471996029185133,-1920.839665394719,139.16581579090948
4.45998515625,-2262.799932757143,8.973916718996733,-2406.433757029562,143.63382427241933
5.587457421875,-2868.5621113419047,9.78875297453943,-3014.773745854968,146.21163451306336
6.999951562500001,-3632.1050921990477,7.625643181208801,-3776.9004037975783,144.7953115985307
6.99995078125,-3631.1315411571427,7.354688443297933,-3776.8999822655983,145.76844110845522
